#q[A]	I[arb.]
0.002000	7985628.531
0.002028	7985623.272
0.002056	7985617.866
0.002085	7985612.308
0.002114	7985606.593
0.002143	7985600.718
0.002173	7985594.679
0.002204	7985588.470
0.002234	7985582.086
0.002265	7985575.523
0.002297	7985568.776
0.002329	7985561.840
0.002361	7985554.709
0.002394	7985547.378
0.002428	7985539.841
0.002462	7985532.092
0.002496	7985524.126
0.002531	7985515.936
0.002566	7985507.516
0.002602	7985498.860
0.002638	7985489.961
0.002675	7985480.812
0.002712	7985471.406
0.002750	7985461.737
0.002788	7985451.795
0.002827	7985441.575
0.002866	7985431.068
0.002906	7985420.266
0.002947	7985409.160
0.002988	7985397.743
0.003030	7985386.006
0.003072	7985373.938
0.003115	7985361.533
0.003158	7985348.778
0.003202	7985335.666
0.003247	7985322.186
0.003292	7985308.327
0.003338	7985294.080
0.003384	7985279.432
0.003432	7985264.373
0.003479	7985248.891
0.003528	7985232.975
0.003577	7985216.612
0.003627	7985199.790
0.003678	7985182.496
0.003729	7985164.716
0.003781	7985146.436
0.003833	7985127.644
0.003887	7985108.325
0.003941	7985088.463
0.003996	7985068.043
0.004052	7985047.050
0.004108	7985025.468
0.004166	7985003.280
0.004224	7984980.469
0.004282	7984957.018
0.004342	7984932.909
0.004403	7984908.123
0.004464	7984882.641
0.004526	7984856.444
0.004589	7984829.511
0.004653	7984801.823
0.004718	7984773.357
0.004784	7984744.092
0.004851	7984714.006
0.004918	7984683.075
0.004987	7984651.276
0.005056	7984618.585
0.005127	7984584.976
0.005198	7984550.423
0.005271	7984514.901
0.005344	7984478.381
0.005419	7984440.837
0.005494	7984402.238
0.005571	7984362.556
0.005648	7984321.761
0.005727	7984279.820
0.005807	7984236.702
0.005888	7984192.374
0.005970	7984146.801
0.006053	7984099.950
0.006138	7984051.783
0.006223	7984002.265
0.006310	7983951.356
0.006398	7983899.019
0.006487	7983845.213
0.006578	7983789.896
0.006669	7983733.027
0.006762	7983674.562
0.006856	7983614.456
0.006952	7983552.663
0.007049	7983489.136
0.007147	7983423.825
0.007247	7983356.682
0.007348	7983287.654
0.007450	7983216.689
0.007554	7983143.733
0.007659	7983068.728
0.007766	7982991.619
0.007874	7982912.346
0.007984	7982830.848
0.008096	7982747.063
0.008208	7982660.926
0.008323	7982572.373
0.008439	7982481.334
0.008556	7982387.740
0.008676	7982291.520
0.008797	7982192.599
0.008919	7982090.903
0.009044	7981986.353
0.009170	7981878.869
0.009297	7981768.369
0.009427	7981654.768
0.009558	7981537.980
0.009692	7981417.914
0.009827	7981294.480
0.009964	7981167.582
0.010103	7981037.123
0.010244	7980903.004
0.010386	7980765.121
0.010531	7980623.370
0.010678	7980477.642
0.010827	7980327.825
0.010978	7980173.805
0.011131	7980015.464
0.011286	7979852.680
0.011443	7979685.329
0.011603	7979513.284
0.011764	7979336.411
0.011928	7979154.577
0.012095	7978967.642
0.012263	7978775.464
0.012434	7978577.894
0.012608	7978374.782
0.012783	7978165.972
0.012961	7977951.306
0.013142	7977730.618
0.013325	7977503.741
0.013511	7977270.500
0.013699	7977030.717
0.013890	7976784.209
0.014084	7976530.788
0.014280	7976270.260
0.014479	7976002.425
0.014681	7975727.080
0.014886	7975444.013
0.015093	7975153.008
0.015304	7974853.844
0.015517	7974546.291
0.015733	7974230.114
0.015953	7973905.073
0.016175	7973570.918
0.016401	7973227.396
0.016629	7972874.242
0.016861	7972511.189
0.017096	7972137.958
0.017334	7971754.265
0.017576	7971359.817
0.017821	7970954.313
0.018069	7970537.444
0.018321	7970108.891
0.018577	7969668.328
0.018836	7969215.419
0.019098	7968749.818
0.019364	7968271.171
0.019634	7967779.112
0.019908	7967273.266
0.020185	7966753.249
0.020467	7966218.663
0.020752	7965669.102
0.021041	7965104.146
0.021335	7964523.366
0.021632	7963926.320
0.021934	7963312.553
0.022239	7962681.597
0.022549	7962032.974
0.022864	7961366.188
0.023182	7960680.734
0.023506	7959976.089
0.023833	7959251.718
0.024165	7958507.071
0.024502	7957741.582
0.024844	7956954.668
0.025190	7956145.733
0.025541	7955314.162
0.025897	7954459.324
0.026258	7953580.569
0.026624	7952677.232
0.026995	7951748.627
0.027372	7950794.050
0.027753	7949812.777
0.028140	7948804.064
0.028532	7947767.149
0.028930	7946701.244
0.029333	7945605.544
0.029742	7944479.219
0.030157	7943321.417
0.030577	7942131.263
0.031004	7940907.856
0.031436	7939650.273
0.031874	7938357.563
0.032318	7937028.751
0.032769	7935662.833
0.033225	7934258.780
0.033689	7932815.532
0.034158	7931332.002
0.034634	7929807.072
0.035117	7928239.595
0.035607	7926628.390
0.036103	7924972.246
0.036606	7923269.918
0.037117	7921520.126
0.037634	7919721.557
0.038158	7917872.862
0.038690	7915972.653
0.039230	7914019.506
0.039777	7912011.959
0.040331	7909948.508
0.040893	7907827.610
0.041463	7905647.680
0.042041	7903407.089
0.042627	7901104.164
0.043221	7898737.188
0.043824	7896304.397
0.044435	7893803.978
0.045054	7891234.072
0.045682	7888592.768
0.046319	7885878.103
0.046965	7883088.064
0.047619	7880220.580
0.048283	7877273.529
0.048956	7874244.728
0.049639	7871131.940
0.050331	7867932.864
0.051032	7864645.141
0.051743	7861266.348
0.052465	7857793.998
0.053196	7854225.538
0.053938	7850558.346
0.054689	7846789.734
0.055452	7842916.940
0.056225	7838937.131
0.057009	7834847.400
0.057803	7830644.762
0.058609	7826326.156
0.059426	7821888.439
0.060254	7817328.388
0.061094	7812642.695
0.061946	7807827.968
0.062809	7802880.726
0.063685	7797797.398
0.064573	7792574.321
0.065473	7787207.739
0.066385	7781693.800
0.067311	7776028.553
0.068249	7770207.946
0.069200	7764227.827
0.070165	7758083.935
0.071143	7751771.905
0.072135	7745287.261
0.073140	7738625.415
0.074160	7731781.665
0.075193	7724751.192
0.076242	7717529.058
0.077304	7710110.203
0.078382	7702489.444
0.079475	7694661.469
0.080582	7686620.839
0.081706	7678361.983
0.082845	7669879.195
0.083999	7661166.633
0.085170	7652218.314
0.086358	7643028.116
0.087561	7633589.771
0.088782	7623896.864
0.090020	7613942.830
0.091274	7603720.952
0.092547	7593224.361
0.093837	7582446.027
0.095145	7571378.763
0.096471	7560015.221
0.097816	7548347.886
0.099179	7536369.078
0.100562	7524070.948
0.101964	7511445.475
0.103385	7498484.467
0.104826	7485179.554
0.106287	7471522.191
0.107769	7457503.651
0.109271	7443115.030
0.110794	7428347.237
0.112339	7413191.001
0.113905	7397636.863
0.115492	7381675.179
0.117102	7365296.114
0.118735	7348489.648
0.120390	7331245.571
0.122068	7313553.481
0.123769	7295402.789
0.125495	7276782.714
0.127244	7257682.286
0.129018	7238090.347
0.130816	7217995.548
0.132640	7197386.356
0.134489	7176251.051
0.136363	7154577.731
0.138264	7132354.312
0.140191	7109568.530
0.142146	7086207.950
0.144127	7062259.963
0.146136	7037711.793
0.148173	7012550.501
0.150239	6986762.995
0.152333	6960336.027
0.154456	6933256.209
0.156609	6905510.013
0.158792	6877083.783
0.161006	6847963.744
0.163250	6818136.009
0.165526	6787586.592
0.167833	6756301.416
0.170173	6724266.331
0.172545	6691467.120
0.174950	6657889.520
0.177389	6623519.232
0.179861	6588341.941
0.182369	6552343.333
0.184911	6515509.112
0.187488	6477825.021
0.190102	6439276.865
0.192752	6399850.532
0.195438	6359532.018
0.198163	6318307.454
0.200925	6276163.130
0.203726	6233085.527
0.206566	6189061.348
0.209445	6144077.546
0.212365	6098121.365
0.215325	6051180.368
0.218326	6003242.482
0.221370	5954296.034
0.224455	5904329.791
0.227584	5853333.009
0.230757	5801295.474
0.233973	5748207.553
0.237235	5694060.240
0.240542	5638845.215
0.243895	5582554.891
0.247294	5525182.474
0.250742	5466722.023
0.254237	5407168.509
0.257781	5346517.877
0.261374	5284767.114
0.265017	5221914.315
0.268712	5157958.754
0.272457	5092900.953
0.276255	5026742.756
0.280106	4959487.409
0.284011	4891139.630
0.287970	4821705.693
0.291984	4751193.508
0.296054	4679612.698
0.300181	4606974.690
0.304365	4533292.791
0.308608	4458582.277
0.312910	4382860.477
0.317271	4306146.858
0.321694	4228463.108
0.326178	4149833.223
0.330725	4070283.591
0.335335	3989843.070
0.340009	3908543.070
0.344749	3826417.633
0.349555	3743503.503
0.354427	3659840.201
0.359368	3575470.091
0.364377	3490438.440
0.369456	3404793.476
0.374606	3318586.439
0.379828	3231871.621
0.385123	3144706.404
0.390491	3057151.281
0.395934	2969269.875
0.401453	2881128.946
0.407050	2792798.377
0.412724	2704351.158
0.418477	2615863.353
0.424310	2527414.046
0.430225	2439085.277
0.436222	2350961.960
0.442302	2263131.778
0.448468	2175685.060
0.454719	2088714.644
0.461058	2002315.702
0.467485	1916585.563
0.474001	1831623.491
0.480609	1747530.455
0.487308	1664408.860
0.494101	1582362.264
0.500988	1501495.056
0.507972	1421912.115
0.515053	1343718.439
0.522232	1267018.743
0.529512	1191917.035
0.536893	1118516.164
0.544377	1046917.333
0.551965	977219.603
0.559659	909519.361
0.567461	843909.766
0.575371	780480.188
0.583391	719315.612
0.591523	660496.044
0.599769	604095.899
0.608129	550183.384
0.616606	498819.880
0.625201	450059.331
0.633916	403947.636
0.642753	360522.064
0.651712	319810.685
0.660797	281831.837
0.670008	246593.628
0.679348	214093.480
0.688817	184317.735
0.698419	157241.315
0.708155	132827.463
0.718026	111027.558
0.728035	91781.023
0.738183	75015.333
0.748473	60646.126
0.758907	48577.435
0.769485	38702.036
0.780212	30901.931
0.791087	25048.963
0.802115	21005.565
0.813296	18625.651
0.824633	17755.650
0.836127	18235.673
0.847783	19900.814
0.859600	22582.579
0.871583	26110.427
0.883732	30313.424
0.896051	35021.967
0.908541	40069.590
0.921206	45294.811
0.934047	50542.991
0.947067	55668.187
0.960269	60534.968
0.973654	65020.139
0.987226	69014.369
1.000988	72423.652
1.014941	75170.592
1.029089	77195.445
1.043434	78456.909
1.057979	78932.605
1.072726	78619.230
1.087679	77532.352
1.102841	75705.824
1.118214	73190.812
1.133801	70054.424
1.149606	66377.950
1.165631	62254.739
1.181879	57787.726
1.198354	53086.671
1.215058	48265.146
1.231996	43437.360
1.249169	38714.881
1.266582	34203.369
1.284237	29999.396
1.302139	26187.486
1.320290	22837.461
1.338694	20002.217
1.357355	17716.029
1.376275	15993.476
1.395460	14829.066
1.414912	14197.615
1.434635	14055.414
1.454633	14342.178
1.474910	14983.746
1.495469	15895.452
1.516315	16986.062
1.537452	18162.117
1.558883	19332.507
1.580613	20413.039
1.602646	21330.793
1.624986	22027.976
1.647637	22465.057
1.670605	22622.941
1.693892	22503.984
1.717504	22131.701
1.741445	21549.102
1.765720	20815.649
1.790333	20002.940
1.815289	19189.332
1.840593	18453.799
1.866250	17869.429
1.892265	17497.051
1.918642	17379.518
1.945387	17537.213
1.972504	17965.307
2.000000	18633.239
